#Rotational partition function for H2 (odd) following A.Popovas Thesis (2014)
# first column Tgas (K), second partition function
10 3.5690510073978296e-7
20 0.0017922460508139073
30 0.030691109678038904
40 0.1270047814412753
50 0.29778622603268806
60 0.5255673025585182
70 0.7886133733227585
80 1.069197233132077
90 1.3549342547405827
100 1.6379188173594141
110 1.9135193009326101
120 2.179353800575804
130 2.4345244110406496
140 2.6790721732133185
150 2.9135987829539975
160 3.1390093960881704
170 3.3563419513606556
180 3.5666576198099507
190 3.7709738916477633
200 3.9702269017173863
210 4.165253349997817
220 4.35678514828739
230 4.5454519689407435
240 4.73178836808652
250 4.916243239941994
260 5.099190134206306
270 5.280937514537931
280 5.4617384136747456
290 5.641799196090393
300 5.8212873069842805
310 6.000337992726237
320 6.179060041595144
330 6.357540628507979
340 6.535849363252032
350 6.714041645415389
360 6.892161425540775
370 7.070243464242303
380 7.248315171269064
390 7.426398096143791
400 7.604509131888684
410 7.782661483950954
420 7.960865447996529
430 8.139129032834795
440 8.317458458360802
450 8.495858552987848
460 8.674333070500502
470 8.852884942480564
480 9.031516479342743
490 9.210229530463259
500 9.389025611804229
510 9.567906007749526
520 9.7468718525066
530 9.92592419533315
540 10.10506405297031
550 10.284292451962397
560 10.463610462984867
570 10.643019228857423
580 10.822519987567226
590 11.002114091347657
600 11.181803022637983
610 11.361588407574317
620 11.541472027525453
630 11.721455829078087
640 11.9015419327907
650 12.081732640967738
660 12.262030444652238
670 12.442438029992974
680 12.622958284108073
690 12.8035943005414
700 12.984349384385194
710 13.165227057126653
720 13.346231061261237
730 13.527365364704986
740 13.708634165028576
750 13.89004189352851
760 14.071593219144974
770 14.253293052230058
780 14.435146548167387
790 14.617159110839241
800 14.799336395935786
810 14.9816843140984
820 15.164209033887259
830 15.34691698456279
840 15.529814858668885
850 15.71290961440597
860 15.896208477781276
870 16.07971894452413
880 16.263448781753823
890 16.447406029388638
900 16.63159900128472
910 16.81603628609453
920 17.000726747835813
930 17.185679526162062
940 17.370904036327886
950 17.556409968842743
960 17.74220728880839
970 17.928306234936233
980 18.11471731824255
990 18.30145132042014
1000 18.488519291886846
1010 18.675932549512446
1020 18.863702674026392
1030 19.051841507110336
1040 19.240361148180597
1050 19.429273950866293
1060 19.618592519190546
1070 19.808329703462615
1080 19.99849859588987
1090 20.18911252591936
1100 20.380185055319593
1110 20.57172997301332
1120 20.763761289673454
1130 20.956293232093945
1140 21.149340237348643
1150 21.34291694675105
1160 21.537038199628185
1170 21.73171902692248
1180 21.926974644635145
1190 22.122820447124905
1200 22.3192720002763
1210 22.516345034550945
1220 22.71405543793611
1230 22.912419248803864
1240 23.111452648694684
1250 23.311171955038645
1260 23.511593613827472
1270 23.712734192250117
1280 23.914610371304637
1290 24.117238938398078
1300 24.320636779946973
1310 24.524820873988958
1320 24.72980828281726
1330 24.93561614564842
1340 25.14226167133322
1350 25.349762131120837
1360 25.5581348514856
1370 25.767397207024477
1380 25.977566613434675
1390 26.18866052057815
1400 26.40069640564143
1410 26.61369176639686
1420 26.82766411457241
1430 27.042630969335587
1440 27.258609850897397
1450 27.47561827424122
1460 27.693673742981492
1470 27.912793743356335
1480 28.132995738358023
1490 28.354297162004812
1500 28.576715413757107
1510 28.80026785308066
1520 29.02497179415915
1530 29.250844500757974
1540 29.477903181241214
1550 29.706164983742372
1560 29.93564699149079
1570 30.16636621829339
1580 30.39833960417317
1590 30.63158401116344
1600 30.86611621925875
1610 31.101952922521313
1620 31.339110725342508
1630 31.577606138858943
1640 31.81745557752141
1650 32.05867535581612
1660 32.30128168513613
1670 32.54529067080215
1680 32.79071830922997
1690 33.037580485243694
1700 33.28589296953173
1710 33.53567141624415
1720 33.78693136072871
1730 34.039688217403175
1740 34.29395727776167
1750 34.549753708512476
1760 34.80709254984426
1770 35.06598871381851
1780 35.3264569828853
1790 35.58851200851944
1800 35.85216830997402
1810 36.117440273148986
1820 36.38434214957146
1830 36.652888055484595
1840 36.9230919710428
1850 37.19496773960954
1860 37.46852906715536
1870 37.74378952175264
1880 38.02076253316471
1890 38.29946139252589
1900 38.5798992521095
1910 38.86208912518147
1920 39.14604388593596
1930 39.4317762695106
1940 39.71929887207819
1950 40.008624151012405
1960 40.29976442512423
1970 40.592731874966844
1980 40.887538543206
1990 41.18419633505321
2000 41.48271701875941
2010 41.78311222616595
2020 42.08539345331111
2030 42.38957206108893
2040 42.695659275958405
2050 43.0036661907006
2060 43.31360376522118
2070 43.625482827395885
2080 43.93931407395729
2090 44.25510807142027
2100 44.572875257043876
2110 44.89262593982796
2120 45.2143703015424
2130 45.53811839778642
2140 45.86388015907712
2150 46.19166539196419
2160 46.52148378017005
2170 46.85334488575257
2180 47.18725815028982
2190 47.52323289608412
2200 47.86127832738444
2210 48.201403531625395
2220 48.54361748068117
2230 48.88792903213324
2240 49.23434693055015
2250 49.5828798087781
2260 49.93353618924103
2270 50.28632448524895
2280 50.64125300231333
2290 50.99832993946809
2300 51.35756339059538
2310 51.7189613457548
2320 52.082531692515396
2330 52.4482822172888
2340 52.816220606663045
2350 53.18635444873588
2360 53.558691234446925
2370 53.93323835890743
2380 54.31000312272724
2390 54.688992733337805
2400 55.07021430631062
2410 55.45367486667071
2420 55.8393813502039
2430 56.22734060475753
2440 56.6175593915342
2450 57.01004438637743
2460 57.40480218104916
2470 57.80183928449847
2480 58.201162124120636
2490 58.60277704700673
2500 59.00669032118273
2510 59.4129081368379
2520 59.82143660754222
2530 60.2322817714523
2540 60.64544959250556
2550 61.06094596160226
2560 61.47877669777499
2570 61.89894754934568
2580 62.32146419506969
2590 62.74633224526628
2600 63.17355724293638
2610 63.60314466486607
2620 64.03509992271671
2630 64.4694283641011
2640 64.90613527364522
2650 65.34522587403617
2660 65.78670532705547
2670 66.23057873459805
2680 66.67685113967669
2690 67.12552752741178
2700 67.57661282600681
2710 68.03011190770833
2720 68.48602958975216
2730 68.94437063529404
2740 69.4051397543259
2750 69.86834160457741
2760 70.33398079240231
2770 70.80206187365056
2780 71.27258935452558
2790 71.74556769242616
2800 72.22100129677506
2810 72.6988945298315
2820 73.17925170749035
2830 73.66207710006624
2840 74.14737493306308
2850 74.63514938793007
2860 75.12540460280279
2870 75.61814467323008
2880 76.11337365288756
2890 76.6110955542768
2900 77.11131434941039
2910 77.61403397048389
2920 78.11925831053372
2930 78.62699122408195
2940 79.13723652776734
2950 79.64999800096349
2960 80.16527938638392
2970 80.68308439067349
2980 81.20341668498845
2990 81.72627990556224
3000 82.25167765425972
3010 82.77961349911882
3020 83.31009097487963
3030 83.84311358350195
3040 84.37868479467033
3050 84.91680804628784
3060 85.45748674495773
3070 86.00072426645396
3080 86.5465239561802
3090 87.0948891296176
3100 87.64582307276214
3110 88.19932904254993
3120 88.75541026727326
3130 89.3140699469848
3140 89.87531125389243
3150 90.43913733274287
3160 91.00555130119649
3170 91.57455625019088
3180 92.14615524429557
3190 92.72035132205684
3200 93.29714749633312
3210 93.87654675462096
3220 94.4585520593724
3230 95.04316634830245
3240 95.63039253468882
3250 96.22023350766226
3260 96.81269213248841
3270 97.40777125084186
3280 98.00547368107141
3290 98.6058022184576
3300 99.2087596354621
3310 99.81434868196965
3320 100.42257208552213
3330 101.03343255154535
3340 101.6469327635683
3350 102.26307538343539
3360 102.88186305151183
3370 103.5032983868817
3380 104.12738398753939
3390 104.75412243057497
3400 105.38351627235208
3410 106.01556804868048
3420 106.65028027498153
3430 107.28765544644835
3440 107.9276960381996
3450 108.57040450542732
3460 109.21578328353965
3470 109.8638347882972
3480 110.51456141594494
3490 111.1679655433375
3500 111.82404952806094
3510 112.48281570854765
3520 113.14426640418783
3530 113.80840391543491
3540 114.47523052390743
3550 115.14474849248501
3560 115.81696006540103
3570 116.49186746833023
3580 117.16947290847187
3590 117.84977857462971
3600 118.5327866372865
3610 119.21849924867584
3620 119.90691854284921
3630 120.59804663573996
3640 121.29188562522309
3650 121.98843759117176
3660 122.6877045955102
3670 123.38968868226347
3680 124.09439187760374
3690 124.80181618989336
3700 125.51196360972492
3710 126.22483610995843
3720 126.94043564575534
3730 127.65876415460993
3740 128.37982355637772
3750 129.1036157533015
3760 129.83014263003454
3770 130.55940605366158
3780 131.29140787371688
3790 132.02614992220066
3800 132.76363401359234
3810 133.50386194486288
3820 134.2468354954833
3830 134.99255642743293
3840 135.7410264852041
3850 136.4922473958063
3860 137.2462208687672
3870 138.0029485961332
3880 138.76243225246697
3890 139.52467349484445
3900 140.28967396284952
3910 141.05743527856757
3920 141.82795904657746
3930 142.6012468539419
3940 143.3773002701966
3950 144.15612084733894
3960 144.9377101198137
3970 145.72206960449887
3980 146.50920080069054
3990 147.29910519008553
4000 148.09178423676414
4010 148.88723938717132
4020 149.68547207009706
4030 150.486483696656
4040 151.29027566026627
4050 152.09684933662712
4060 152.9062060836962
4070 153.7183472416664
4080 154.5332741329413
4090 155.3509880621108
4100 156.17149031592533
4110 156.99478216327057
4120 157.82086485514088
4130 158.64973962461258
4140 159.48140768681668
4150 160.3158702389115
4160 161.15312846005477
4170 161.99318351137552
4180 162.83603653594545
4190 163.68168865875052
4200 164.53014098666176
4210 165.3813946084069
4220 166.23545059454034
4230 167.09230999741436
4240 167.95197385114977
4250 168.81444317160646
4260 169.67971895635395
4270 170.5478021846418
4280 171.41869381737067
4290 172.2923947970626
4300 173.16890604783185
4310 174.0482284753557
4320 174.9303629668461
4330 175.8153103910196
4340 176.70307159806973
4350 177.59364741963822
4360 178.4870386687866
4370 179.38324613996826
4380 180.28227060900088
4390 181.18411283303854
4400 182.0887735505452
4410 182.99625348126727
4420 183.90655332620744
4430 184.81967376759832
4440 185.73561546887683
4450 186.65437907465866
4460 187.57596521071332
4470 188.5003744839396
4480 189.42760748234136
4490 190.3576647750037
4500 191.2905469120703
4510 192.22625442471963
4520 193.1647878251439
4530 194.1061476065258
4540 195.0503342430189
4550 195.9973481897254
4560 196.9471898826768
4570 197.89985973881406
4580 198.855358155968
4590 199.8136855128416
4600 200.7748421689911
4610 201.7388284648091
4620 202.7056447215079
4630 203.6752912411026
4640 204.6477683063962
4650 205.62307618096418
4660 206.60121510914038
4670 207.58218531600298
4680 208.56598700736149
4690 209.55262036974446
4700 210.54208557038726
4710 211.53438275722138
4720 212.5295120588636
4730 213.52747358460607
4740 214.5282674244074
4750 215.53189364888397
4760 216.53835230930207
4770 217.54764343757085
4780 218.55976704623586
4790 219.574723128473
4800 220.59251165808408
4810 221.61313258949127
4820 222.63658585773456
4830 223.66287137846822
4840 224.69198904795832
4850 225.72393874308176
4860 226.7587203213247
4870 227.79633362078235
4880 228.83677846016022
4890 229.88005463877462
4900 230.92616193655502
4910 231.97510011404628
4920 233.02686891241214
4930 234.0814680534399
4940 235.13889723954378
4950 236.1991561537718
4960 237.26224445981165
4970 238.3281618019966
4980 239.39690780531438
4990 240.4684820754147
5000 241.54288419861882
5010 242.62011374192886
5020 243.70017025303792
5030 244.78305326034203
5040 245.8687622729516
5050 246.95729678070353
5060 248.04865625417554
5070 249.14284014469868
5080 250.23984788437312
5090 251.3396788860825
5100 252.44233254351096
5110 253.54780823115897
5120 254.65610530436123
5130 255.7672230993039
5140 256.88116093304495
5150 257.9979181035317
5160 259.11749388962204
5170 260.23988755110514
5180 261.3650983287223
5190 262.4931254441893
5200 263.62396810021966
5210 264.7576254805468
5220 265.89409674995
5230 267.03338105427656
5240 268.17547752046966
5250 269.32038525659283
5260 270.468103351857
5270 271.61863087664784
5280 272.7719668825531
5290 273.92811040239235
5300 275.08706045024456
5310 276.2488160214793
5320 277.41337609278605
5330 278.5807396222059
5340 279.7509055491621
5350 280.92387279449434
5360 282.0996402604888
5370 283.27820683091335
5380 284.4595713710512
5390 285.6437327277355
5400 286.8306897293833
5410 288.0204411860335
5420 289.21298588938083
5430 290.4083226128138
5440 291.6064501114521
5450 292.8073671221847
5460 294.0110723637073
5470 295.2175645365626
5480 296.42684232317896
5490 297.63890438791105
5500 298.8537493770806
5510 300.0713759190168
5520 301.29178262409863
5530 302.5149680847967
5540 303.7409308757167
5550 304.9696695536414
5560 306.2011826575749
5570 307.4354687087874
5580 308.67252621085925
5590 309.9123536497258
5600 311.15494949372385
5610 312.4003121936374
5620 313.64844018274414
5630 314.89933187686245
5640 316.1529856743994
5650 317.40939995639843
5660 318.6685730865867
5670 319.93050341142583
5680 321.19518926016013
5690 322.46262894486614
5700 323.7328207605033
5710 325.00576298496395
5720 326.281453879125
5730 327.55989168689854
5740 328.84107463528443
5750 330.12500093442134
5760 331.4116687776409
5770 332.7010763415192
5780 333.99322178593104
5790 335.2881032541032
5800 336.5857188726688
5810 337.8860667517218
5820 339.18914498487135
5830 340.49495164929755
5840 341.803484805807
5850 343.11474249888806
5860 344.4287227567676
5870 345.74542359146784
5880 347.0648429988623
5890 348.3869789587337
5900 349.7118294348319
5910 351.0393923749309
5920 352.36966571088715
5930 353.7026473586985
5940 355.03833521856285
5950 356.37672717493706
5960 357.7178210965959
5970 359.0616148366935
5980 360.4081062328201
5990 361.75729310706566
6000 363.1091732660781
6010 364.4637445011249
6020 365.82100458815415
6030 367.1809512878556
6040 368.5435823457217
6050 369.90889549211084
6060 371.2768884423076
6070 372.64755889658636
6080 374.02090454027297
6090 375.3969230438075
6100 376.7756120628081
6110 378.1569692381323
6120 379.5409921959428
6130 380.9276785477691
6140 382.31702589057187
6150 383.7090318068068
6160 385.1036938644898
6170 386.50100961725934
6180 387.90097660444314
6190 389.3035923511216
6200 390.70885436819316
6210 392.11676015243876
6220 393.5273071865881
6230 394.94049293938434
6240 396.35631486565006
6250 397.7747704063527
6260 399.1958569886703
6270 400.6195720260579
6280 402.04591291831383
6290 403.4748770516456
6300 404.9064617987362
6310 406.34066451881125
6320 407.77748255770547
6330 409.21691324792914
6340 410.6589539087359
6350 412.10360184618844
6360 413.5508543532271
6370 415.00070870973616
6380 416.4531621826114
6390 417.908212025828
6400 419.36585548050783
6410 420.82608977498643
6420 422.2889121248824
6430 423.754319733163
6440 425.2223097902141
6450 426.69287947390694
6460 428.1660259496663
6470 429.64174637053924
6480 431.1200378772623
6490 432.6008975983306
6500 434.084322650066
6510 435.5703101366844
6520 437.058857150366
6530 438.5499607713214
6540 440.0436180678627
6550 441.5398260964697
6560 443.0385819018599
6570 444.5398825170561
6580 446.04372496345655
6590 447.5501062509006
6600 449.0590233777415
6610 450.5704733309112
6620 452.08445308599164
6630 453.6009596072819
6640 455.1199898478677
6650 456.64154074969076
6660 458.16560924361494
6670 459.69219224949836
6680 461.2212866762596
6690 462.75288942194715
6700 464.2869973738092
6710 465.82360740836003
6720 467.36271639145104
6730 468.9043211783377
6740 470.44841861374925
6750 471.99500553195634
6760 473.5440787568408
6770 475.09563510196307
6780 476.6496713706318
6790 478.2061843559708
6800 479.765170840989
6810 481.3266275986481
6820 482.890551391931
6830 484.4569389739101
6840 486.0257870878157
6850 487.5970924671043
6860 489.1708518355263
6870 490.7470619071945
6880 492.32571938665234
6890 493.90682096894074
6900 495.49036333966774
6910 497.0763431750744
6920 498.6647571421049
6930 500.25560189847164
6940 501.8488740927257
6950 503.4445703643208
6960 505.0426873436848
6970 506.64322165228367
6980 508.2461699026914
6990 509.8515286986556
7000 511.4592946351648
7010 513.0694642985166
7020 514.6820342663832
7030 516.2970011078794
7040 517.9143613836283
7050 519.5341116458295
7060 521.1562484383232
7070 522.7807682966602
7080 524.4076677481647
7090 526.0369433120032
7100 527.6685914992488
7110 529.3026088129479
7120 530.938991748187
7130 532.5777367921579
7140 534.2188404242218
7150 535.8622991159781
7160 537.5081093313273
7170 539.156267526537
7180 540.8067701503078
7190 542.4596136438373
7200 544.1147944408866
7210 545.7723089678428
7220 547.4321536437866
7230 549.0943248805546
7240 550.7588190828044
7250 552.4256326480797
7260 554.0947619668732
7270 555.7662034226922
7280 557.4399533921209
7290 559.1160082448845
7300 560.7943643439146
7310 562.4750180454101
7320 564.1579656989021
7330 565.8432036473167
7340 567.5307282270383
7350 569.2205357679718
7360 570.9126225936066
7370 572.6069850210778
7380 574.3036193612295
7390 576.0025219186762
7400 577.7036889918664
7410 579.4071168731441
7420 581.1128018488092
7430 582.8207401991809
7440 584.5309281986584
7450 586.2433621157826
7460 587.958038213297
7470 589.6749527482084
7480 591.394101971849
7490 593.115482129935
7500 594.83908946263
7510 596.5649202046025
7520 598.2929705850873
7530 600.0232368279466
7540 601.7557151517273
7550 603.4904017697231
7560 605.2272928900334
7570 606.9663847156208
7580 608.7076734443734
7590 610.4511552691612
7600 612.1968263778955
7610 613.9446829535889
7620 615.6947211744117
7630 617.4469372137519
7640 619.2013272402719
7650 620.9578874179678
7660 622.7166139062257
7670 624.4775028598799
7680 626.240550429271
7690 628.0057527603021
7700 629.7731059944961
7710 631.5426062690518
7720 633.3142497169025
7730 635.0880324667701
7740 636.8639506432232
7750 638.6420003667324
7760 640.4221777537249
7770 642.2044789166433
7780 643.9888999639983
7790 645.7754370004251
7800 647.5640861267383
7810 649.3548434399878
7820 651.1477050335118
7830 652.9426669969926
7840 654.7397254165102
7850 656.5388763745982
7860 658.3401159502947
7870 660.1434402192001
7880 661.9488452535254
7890 663.7563271221517
7900 665.5658818906786
7910 667.3775056214789
7920 669.1911943737531
7930 671.0069442035781
7940 672.8247511639635
7950 674.6446113049017
7960 676.4665206734205
7970 678.2904753136341
7980 680.1164712667975
7990 681.9445045713535
8000 683.7745712629882
8010 685.6066673746789
8020 687.4407889367475
8030 689.2769319769085
8040 691.1150925203218
8050 692.955266589641
8060 694.797450205066
8070 696.6416393843896
8080 698.4878301430493
8090 700.3360184941769
8100 702.1862004486452
8110 704.0383720151215
8120 705.8925292001113
8130 707.7486680080109
8140 709.6067844411542
8150 711.4668744998605
8160 713.3289341824844
8170 715.1929594854608
8180 717.0589464033555
8190 718.9268909289104
8200 720.796789053092
8210 722.6686367651376
8220 724.5424300526035
8230 726.4181649014093
8240 728.2958372958868
8250 730.1754432188247
8260 732.0569786515148
8270 733.9404395737986
8280 735.825821964112
8290 737.7131217995308
8300 739.6023350558172
8310 741.4934577074625
8320 743.3864857277342
8330 745.28141508872
8340 747.1782417613701
8350 749.0769617155447
8360 750.9775709200565
8370 752.880065342713
8380 754.7844409503631
8390 756.6906937089389
8400 758.5988195834974
8410 760.5088145382675
8420 762.4206745366881
8430 764.3343955414545
8440 766.2499735145582
8450 768.1674044173318
8460 770.0866842104876
8470 772.0078088541621
8480 773.9307743079569
8490 775.8555765309792
8500 777.7822114818838
8510 779.7106751189157
8520 781.6409633999464
8530 783.5730722825192
8540 785.506997723888
8550 787.4427356810558
8560 789.380282110817
8570 791.3196329697969
